Potential (V);ic (A);if (A) 
-0.55;0.0;3.362985063806956e-10
-0.5495000000000001;0.018800495586464728;4.198226577901944e-07
-0.549;0.03539187470857522;4.238993608245559e-07
-0.5485000000000001;0.050033715393444464;4.2802572757857995e-07
-0.548;0.06295509444597866;4.3219998696840675e-07
-0.5475000000000001;0.07435817143696155;4.364199671024818e-07
-0.547;0.08442135156143767;4.4066775178431205e-07
-0.5465000000000001;0.09330207685143865;4.4497739011457234e-07
-0.546;0.10113928941256922;4.493295700396712e-07
-0.5455000000000001;0.10805560522266404;4.5371316301437515e-07
-0.545;0.11415923250236958;4.5816001058807603e-07
-0.5445000000000001;0.11954566467124057;4.626297958202597e-07
-0.544;0.12429917437625124;4.671530516136098e-07
-0.5435000000000001;0.12849413196732895;4.717260683195965e-07
-0.543;0.13219616904792877;4.7633718601815525e-07
-0.5425000000000001;0.13546320530481146;4.809887338239361e-07
-0.542;0.13834635468214196;4.856971572568947e-07
-0.5415000000000001;0.14089072507732486;4.904522660485892e-07
-0.541;0.1431361240701017;4.952491503651803e-07
-0.5405000000000001;0.14511768172629386;5.000964739630637e-07
-0.54;0.1468664002201762;5.049892839958725e-07
-0.5395000000000001;0.14840963887451977;5.099188022572962e-07
-0.539;0.1497715422069268;5.149188237718986e-07
-0.5385000000000001;0.15097341767939562;5.199553684778023e-07
-0.538;0.15203406906114178;5.2503912071546e-07
-0.5375000000000001;0.15297009062025482;5.301761152003491e-07
-0.537;0.15379612674692447;5.353602488973474e-07
-0.5365000000000001;0.15452510107013345;5.405980681353374e-07
-0.536;0.15516841865242906;5.458916368652993e-07
-0.5355000000000001;0.15573614442618314;5.512311274445991e-07
-0.535;0.15623716066303855;5.566231829363283e-07
-0.5345000000000001;0.15667930594020804;5.620644426145806e-07
-0.534;0.15706949777780252;5.675694149657516e-07
-0.5335000000000001;0.15741384086589347;5.731248865506682e-07
-0.533;0.15771772257456013;5.787274449188374e-07
-0.5325000000000001;0.15798589724121057;5.8439977185109e-07
-0.532;0.15822256055388123;5.901150672172555e-07
-0.5315000000000001;0.1584314151942685;5.958871918747705e-07
-0.531;0.1586157287675007;6.017180579135066e-07
-0.5305000000000001;0.1587783849249824;6.07610289669078e-07
-0.53;0.15892192848014633;6.13554389445077e-07
-0.5295000000000001;0.15904860522296446;6.19557054087736e-07
-0.529;0.159160397056131;6.256142575591858e-07
-0.5285000000000001;0.15925905300263468;6.317379970668116e-07
-0.528;0.15934611656984576;6.379172801995823e-07
-0.5275000000000001;0.1594229498982375;6.441718936725273e-07
-0.527;0.15949075507255844;6.504647921136453e-07
-0.5265000000000001;0.1595505929288759;6.56829564988538e-07
-0.526;0.1596033996517334;6.632671381531717e-07
-0.5255000000000001;0.15965000142109076;6.697498924246902e-07
-0.525;0.15969112733820356;6.763038700340299e-07
-0.5245000000000001;0.15972742083267158;6.829264860493851e-07
-0.524;0.1597594497291236;6.896094168896139e-07
-0.5235000000000001;0.15978771513103568;6.963559074203561e-07
-0.523;0.15981265926067342;7.031675861969801e-07
-0.5225000000000001;0.15983467237781637;7.100485963490518e-07
-0.522;0.15985409888551128;7.169950984494452e-07
-0.5215000000000001;0.15987124271838007;7.240147506402059e-07
-0.521;0.1598863720977852;7.311031938629778e-07
-0.5205000000000001;0.15989972372824826;7.382510081996165e-07
-0.52;0.15991150650077635;7.454802810433542e-07
-0.5195000000000001;0.15992190476103627;7.527795293015353e-07
-0.519;0.15993108119350788;7.601395482844017e-07
-0.5185000000000001;0.1599391793667409;7.675820822951183e-07
-0.518;0.1599463259795356;7.750963964523089e-07
-0.5175000000000001;0.15995263284319092;7.826790034599136e-07
-0.517;0.15995819863083174;7.903378631979656e-07
-0.5165000000000001;0.15996311042118522;7.980800458083426e-07
-0.516;0.1599674450609583;8.058860915408648e-07
-0.5155000000000001;0.15997127036713185;8.137712661509717e-07
-0.515;0.1599746461879815;8.217435179022789e-07
-0.5145000000000001;0.15997762533942494;8.297801105086071e-07
-0.514;0.15998025443134614;8.379002757493372e-07
-0.5135000000000001;0.1599825745968232;8.461036696434292e-07
-0.513;0.1599846221356702;8.543808306235638e-07
-0.5125000000000001;0.15998642908236058;8.627440659630832e-07
-0.512;0.15998802370721799;8.711885779833848e-07
-0.5115000000000001;0.1599894309587154;8.797134516546291e-07
-0.511;0.15999067285380306;8.883238240487809e-07
-0.5105000000000001;0.15999176882237126;8.970190609446216e-07
-0.51;0.159992736011238;9.057994948634219e-07
-0.5095000000000001;0.15999358955241713;9.146628353152181e-07
-0.509;0.15999434279986394;9.236121043589221e-07
-0.5085000000000001;0.15999500753840262;9.326612473808886e-07
-0.508;0.15999559416810405;9.417831189965115e-07
-0.5075000000000001;0.1599961118669985;9.510061291258774e-07
-0.507;0.15999656873466936;9.603123582450476e-07
-0.5065000000000001;0.15999697191897375;9.697113342748578e-07
-0.506;0.15999732772787356;9.792018034787339e-07
-0.5055000000000001;0.15999764172812556;9.887871791227697e-07
-0.505;0.15999791883237535;9.984615871704706e-07
-0.5045000000000001;0.1599981633760175;1.0082308022312716e-06
-0.504;0.15999837918502421;1.018104163812705e-06
-0.5035000000000001;0.1599985696358042;1.0280715536592614e-06
-0.503;0.15999873770802764;1.0381362156915415e-06
-0.5025000000000001;0.15999888603124424;1.0482972395540875e-06
-0.502;0.15999901692602347;1.058555176260014e-06
-0.5015000000000001;0.1599991324402607;1.0689162526203611e-06
-0.501;0.15999923438121727;1.0793754184435272e-06
-0.5005000000000001;0.15999932434379566;1.0899455337453278e-06
-0.5;0.15999940373549248;1.1006126100869057e-06
-0.49950000000000006;0.159999473798419;1.111388160483051e-06
-0.49900000000000005;0.15999953562873462;1.1222649870865792e-06
-0.49850000000000005;0.15999959019379664;1.133249017641326e-06
-0.49800000000000005;0.1599996383472949;1.1443397450498435e-06
-0.49750000000000005;0.15999968084260793;1.1555413525600979e-06
-0.49700000000000005;0.15999971834459006;1.166857465331486e-06
-0.49650000000000005;0.15999975143997314;1.17828072085726e-06
-0.49600000000000005;0.15999978064654619;1.189813398877082e-06
-0.49550000000000005;0.1599998064212564;1.2014577213206715e-06
-0.49500000000000005;0.15999982916735841;1.2132215860925752e-06
-0.49450000000000005;0.1599998492407229;1.225097319120792e-06
-0.49400000000000005;0.15999986695540494;1.237086118016968e-06
-0.49350000000000005;0.15999988258855696;1.2491983597590945e-06
-0.49300000000000005;0.1599998963847652;1.2614271856032566e-06
-0.49250000000000005;0.15999990855987622;1.273771318534253e-06
-0.49200000000000005;0.159999919304374;1.286246943103443e-06
-0.49150000000000005;0.15999992878636002;1.2988371811664988e-06
-0.49100000000000005;0.15999993715418329;1.3115486425226199e-06
-0.49050000000000005;0.1599999445387614;1.3243871226681892e-06
-0.49000000000000005;0.15999995105562873;1.3373528159946769e-06
-0.48950000000000005;0.15999995680674395;1.3504445772720403e-06
-0.48900000000000005;0.15999996188208532;1.3636658905227412e-06
-0.48850000000000005;0.15999996636105837;1.3770148431244457e-06
-0.48800000000000004;0.1599999703137382;1.390499440843342e-06
-0.48750000000000004;0.15999997380196593;1.4041124410830644e-06
-0.48700000000000004;0.15999997688031606;1.4178547437866487e-06
-0.48650000000000004;0.15999997959695053;1.431735853141752e-06
-0.48600000000000004;0.15999998199437204;1.4457536380058091e-06
-0.48550000000000004;0.15999998411008912;1.4599068709250097e-06
-0.48500000000000004;0.15999998597720286;1.474196439857365e-06
-0.48450000000000004;0.15999998762492496;1.4886312471875504e-06
-0.48400000000000004;0.15999998907903462;1.5032038186551041e-06
-0.48350000000000004;0.15999999036228185;1.517921944408092e-06
-0.48300000000000004;0.1599999914947436;1.5327854867822547e-06
-0.48250000000000004;0.15999999249413757;1.5477910651485854e-06
-0.48200000000000004;0.15999999337609966;1.562944447592508e-06
-0.48150000000000004;0.15999999415442845;1.5782457294140875e-06
-0.48100000000000004;0.15999999484130123;1.593699560870785e-06
-0.48050000000000004;0.1599999954474643;1.609304416604867e-06
-0.48000000000000004;0.15999999598240136;1.6250557494357775e-06
-0.47950000000000004;0.15999999645448162;1.6409697555459988e-06
-0.47900000000000004;0.15999999687109104;1.6570364903157334e-06
-0.47850000000000004;0.15999999723874753;1.673261226007446e-06
-0.47800000000000004;0.15999999756320324;1.6896422933140047e-06
-0.47750000000000004;0.15999999784953442;1.706186914061122e-06
-0.47700000000000004;0.15999999810222076;1.7228932420601602e-06
-0.47650000000000003;0.15999999832521572;1.7397611084430336e-06
-0.47600000000000003;0.15999999852200805;1.7567954184225576e-06
-0.47550000000000003;0.1599999986956767;1.7739985009601304e-06
-0.47500000000000003;0.1599999988489387;1.7913712494250637e-06
-0.47450000000000003;0.15999999898419198;1.8089086970086851e-06
-0.47400000000000003;0.15999999910355256;1.8266225320060178e-06
-0.47350000000000003;0.1599999992088879;1.844505186510763e-06
-0.47300000000000003;0.15999999930184605;1.8625681877881636e-06
-0.47250000000000003;0.1599999993838813;1.8808064151178703e-06
-0.47200000000000003;0.15999999945627716;1.899223809859344e-06
-0.47150000000000003;0.15999999952016628;1.9178224944852454e-06
-0.47100000000000003;0.15999999957654823;1.9365998191274824e-06
-0.47050000000000003;0.15999999962630512;1.9555654187084813e-06
-0.47000000000000003;0.15999999967021544;1.974714756484651e-06
-0.46950000000000003;0.15999999970896614;1.994052388206657e-06
-0.46900000000000003;0.1599999997431635;2.0135777341336982e-06
-0.4685;0.1599999997733426;2.03329682743005e-06
-0.468;0.15999999979997553;2.0532070613042256e-06
-0.4675;0.15999999982347904;2.073313627561393e-06
-0.467;0.15999999984422078;2.093618957799899e-06
-0.4665;0.15999999986252533;2.1141197183305846e-06
-0.466;0.15999999987867905;2.134825900829357e-06
-0.4655;0.15999999989293462;2.1557317850050826e-06
-0.465;0.15999999990551514;2.17684547564991e-06
-0.4645;0.1599999999166174;2.1981630898380326e-06
-0.4640000000000001;0.15999999992641512;2.2196897698476468e-06
-0.4635;0.15999999993506156;2.241428744101138e-06
-0.463;0.15999999994269204;2.2633802715407983e-06
-0.4625;0.1599999999494259;2.285547932360946e-06
-0.462;0.1599999999553685;2.3079329610235462e-06
-0.4615;0.15999999996061287;2.3305369029605364e-06
-0.461;0.15999999996524097;2.353361945456649e-06
-0.4605;0.15999999996932526;2.376411147872874e-06
-0.4600000000000001;0.15999999997292963;2.3996886350864927e-06
-0.4595;0.1599999999761105;2.4231917305890168e-06
-0.4590000000000001;0.1599999999789176;2.446922218129737e-06
-0.4585;0.15999999998139483;2.4708912297253657e-06
-0.458;0.159999999983581;2.4950944035794935e-06
-0.4575;0.1599999999855103;2.5195339197227127e-06
-0.457;0.15999999998721287;2.5442106219380827e-06
-0.4565;0.1599999999887154;2.5691326011648365e-06
-0.45600000000000007;0.15999999999004139;2.594298819022104e-06
-0.4555;0.15999999999121156;2.619709889573248e-06
-0.45500000000000007;0.1599999999922442;2.6453707754813096e-06
-0.4545;0.15999999999315553;2.6712859762635836e-06
-0.454;0.15999999999395978;2.697448930646636e-06
-0.4535;0.15999999999466952;2.723876948691046e-06
-0.453;0.15999999999529588;2.7505579213536804e-06
-0.4525;0.15999999999584863;2.7775037463543583e-06
-0.45200000000000007;0.15999999999633643;2.804710774619392e-06
-0.4515;0.15999999999676692;2.8321877675711674e-06
-0.45100000000000007;0.1599999999971468;2.859932502790874e-06
-0.4505;0.15999999999748207;2.8879501242775287e-06
-0.45000000000000007;0.15999999999777795;2.9162436674466145e-06
-0.4495;0.15999999999803902;2.9448131485955107e-06
-0.449;0.15999999999826947;2.9736616775898007e-06
-0.4485;0.1599999999984728;3.002796558479264e-06
-0.44800000000000006;0.15999999999865225;3.0322158645303437e-06
-0.4475;0.15999999999881062;3.061922638085521e-06
-0.44700000000000006;0.15999999999895037;3.0919218565079827e-06
-0.4465;0.15999999999907372;3.122214382929413e-06
-0.44600000000000006;0.15999999999918255;3.152807050887411e-06
-0.4455;0.1599999999992786;3.1836972231268786e-06
-0.44500000000000006;0.15999999999936337;3.2148934127541763e-06
-0.4445;0.15999999999943817;3.2463921760508816e-06
-0.44400000000000006;0.15999999999950418;3.278200921158174e-06
-0.4435;0.15999999999956246;3.3103236616365877e-06
-0.44300000000000006;0.15999999999961387;3.3427594949233873e-06
-0.44250000000000006;0.15999999999965925;3.375513370593487e-06
-0.44200000000000006;0.15999999999969927;3.4085911287587262e-06
-0.4415;0.1599999999997346;3.441991373688786e-06
-0.44100000000000006;0.1599999999997658;3.4757218043922833e-06
-0.4405;0.15999999999979334;3.5097797260338226e-06
-0.44000000000000006;0.1599999999998176;3.5441756167378275e-06
-0.4395;0.15999999999983902;3.5789074893345557e-06
-0.43900000000000006;0.15999999999985795;3.613979871057667e-06
-0.43850000000000006;0.15999999999987466;3.649397781041409e-06
-0.43800000000000006;0.15999999999988937;3.685162279096623e-06
-0.43750000000000006;0.1599999999999024;3.7212779813990075e-06
-0.43700000000000006;0.15999999999991385;3.757748082267309e-06
-0.4365;0.15999999999992398;3.7945769780606084e-06
-0.43600000000000005;0.15999999999993292;3.8317666471160115e-06
-0.4355;0.15999999999994077;3.86932321495661e-06
-0.43500000000000005;0.15999999999994774;3.907247195108481e-06
-0.43450000000000005;0.1599999999999539;3.945543921364978e-06
-0.43400000000000005;0.1599999999999593;3.984216383934792e-06
-0.43350000000000005;0.1599999999999641;4.023268358695717e-06
-0.43300000000000005;0.1599999999999683;4.0627029365255566e-06
-0.43250000000000005;0.15999999999997203;4.102526270680809e-06
-0.43200000000000005;0.1599999999999753;4.142740873261034e-06
-0.4315;0.15999999999997822;4.183349329059714e-06
-0.43100000000000005;0.1599999999999808;4.224357534052199e-06
-0.43050000000000005;0.15999999999998304;4.265768284068407e-06
-0.43000000000000005;0.15999999999998502;4.307585861818718e-06
-0.42950000000000005;0.1599999999999868;4.349813147171837e-06
-0.42900000000000005;0.15999999999998835;4.392457589376677e-06
-0.42850000000000005;0.1599999999999897;4.43551923148261e-06
-0.42800000000000005;0.15999999999999093;4.4790045243650014e-06
-0.42750000000000005;0.15999999999999198;4.522915557154426e-06
-0.42700000000000005;0.15999999999999293;4.567259887747874e-06
-0.42650000000000005;0.15999999999999376;4.612039478634307e-06
-0.42600000000000005;0.1599999999999945;4.657259219076855e-06
-0.42550000000000004;0.15999999999999515;4.702921526684835e-06
-0.42500000000000004;0.15999999999999573;4.749034015760781e-06
-0.42450000000000004;0.15999999999999623;4.795600377973945e-06
-0.42400000000000004;0.15999999999999667;4.8426224252719e-06
-0.42350000000000004;0.15999999999999706;4.8901081317329155e-06
-0.42300000000000004;0.15999999999999742;4.938059925218719e-06
-0.42250000000000004;0.1599999999999977;4.986484052298763e-06
-0.42200000000000004;0.15999999999999798;5.03538190587577e-06
-0.42150000000000004;0.1599999999999982;5.084761930687883e-06
-0.42100000000000004;0.15999999999999842;5.134627270894893e-06
-0.42050000000000004;0.15999999999999862;5.184982456322832e-06
-0.42000000000000004;0.15999999999999878;5.23583277552041e-06
-0.41950000000000004;0.15999999999999892;5.2871830830850714e-06
-0.41900000000000004;0.15999999999999903;5.3390377896309004e-06
-0.41850000000000004;0.15999999999999914;5.391403138177206e-06
-0.41800000000000004;0.15999999999999925;5.444283511500435e-06
-0.41750000000000004;0.15999999999999934;5.497683163397683e-06
-0.41700000000000004;0.15999999999999942;5.551607933717094e-06
-0.41650000000000004;0.15999999999999948;5.606063032218147e-06
-0.41600000000000004;0.15999999999999956;5.661053621622006e-06
-0.41550000000000004;0.15999999999999961;5.716585016965182e-06
-0.41500000000000004;0.15999999999999964;5.772664265703353e-06
-0.41450000000000004;0.1599999999999997;5.8292919712265305e-06
-0.41400000000000003;0.15999999999999973;5.8864795249572185e-06
-0.41350000000000003;0.15999999999999975;5.944228553629966e-06
-0.41300000000000003;0.15999999999999978;6.002544981142159e-06
-0.41250000000000003;0.1599999999999998;6.061436415349778e-06
-0.41200000000000003;0.15999999999999984;6.120906692634841e-06
-0.41150000000000003;0.15999999999999986;6.180961989674996e-06
-0.41100000000000003;0.1599999999999999;6.24160747788743e-06
-0.41050000000000003;0.1599999999999999;6.30285087313923e-06
-0.41000000000000003;0.1599999999999999;6.364697100730641e-06
-0.40950000000000003;0.15999999999999992;6.427151300011643e-06
-0.40900000000000003;0.15999999999999992;6.490220518745908e-06
-0.40850000000000003;0.15999999999999992;6.553910192163605e-06
-0.40800000000000003;0.15999999999999995;6.618226775357062e-06
-0.40750000000000003;0.15999999999999995;6.683176541245897e-06
-0.40700000000000003;0.15999999999999995;6.748765679188889e-06
-0.40650000000000003;0.15999999999999998;6.815000495608103e-06
-0.406;0.15999999999999998;6.881888235807722e-06
-0.4055;0.15999999999999998;6.949433556089707e-06
-0.405;0.15999999999999998;7.017644229874604e-06
-0.4045;0.15999999999999998;7.08652732192526e-06
-0.404;0.15999999999999998;7.156087358031397e-06
-0.4035;0.15999999999999998;7.226333064331639e-06
-0.403;0.15999999999999998;7.297270725863511e-06
-0.4025000000000001;0.15999999999999998;7.368907239408981e-06
-0.402;0.15999999999999998;7.441250118083416e-06
-0.4015;0.15999999999999998;7.5143041944926004e-06
-0.401;0.15999999999999998;7.588078962430058e-06
-0.4005;0.15999999999999998;7.662579871956474e-06
-0.4;0.16;7.737814873955273e-06
-0.3995;0.16;7.813792018299257e-06
-0.399;0.16;7.890517555012489e-06
-0.3985000000000001;0.16;7.967998697751547e-06
-0.398;0.16;8.04624426672853e-06
-0.3975000000000001;0.16;8.125260898922913e-06
-0.397;0.16;8.205056000079277e-06
-0.3965;0.16;8.285637888536695e-06
-0.396;0.16;8.367014352418171e-06
-0.3955;0.16;8.449193164609003e-06
-0.395;0.16;8.5321814652322e-06
-0.3945000000000001;0.16;8.615989094263766e-06
-0.394;0.16;8.700623663542997e-06
-0.39350000000000007;0.16;8.78609187432569e-06
-0.393;0.16;8.872402870105044e-06
-0.39250000000000007;0.16;8.959565692036022e-06
-0.392;0.16;9.047588456550176e-06
-0.3915;0.16;9.136480114901302e-06
-0.391;0.16;9.226248040129366e-06
-0.39050000000000007;0.16;9.316901709764766e-06
-0.39;0.16;9.408450280775e-06
-0.38950000000000007;0.16;9.50090181547193e-06
-0.389;0.16;9.594266199863547e-06
-0.3885;0.16;9.688552315439136e-06
-0.388;0.16;9.7837691732484e-06
-0.38750000000000007;0.16;9.879925531650246e-06
-0.387;0.16;9.977031345691931e-06
-0.38650000000000007;0.16;1.0075096429635626e-05
-0.386;0.16;1.0174129091300625e-05
-0.38550000000000006;0.16;1.0274139938949817e-05
-0.385;0.16;1.0375139083788685e-05
-0.38450000000000006;0.16;1.047713578835721e-05
-0.384;0.16;1.058014010605681e-05
-0.3835;0.16;1.0684161283885117e-05
-0.383;0.16;1.0789211147652466e-05
-0.38250000000000006;0.16;1.0895298236926757e-05
-0.382;0.16;1.1002433612470886e-05
-0.38150000000000006;0.16;1.1110628506458612e-05
-0.381;0.16;1.121989242361985e-05
-0.38050000000000006;0.16;1.1330236182415507e-05
-0.38;0.16;1.1441671358302064e-05
-0.37950000000000006;0.16;1.1554207325855309e-05
-0.379;0.16;1.1667857107440559e-05
-0.37850000000000006;0.16;1.1782630414598179e-05
-0.37800000000000006;0.16;1.1898538589229927e-05
-0.37750000000000006;0.16;1.201559266971936e-05
-0.377;0.16;1.2133805871900042e-05
-0.37650000000000006;0.16;1.2253188047826703e-05
-0.376;0.16;1.2373751471178105e-05
-0.37550000000000006;0.16;1.2495507974127422e-05
-0.375;0.16;1.2618469077508322e-05
-0.37450000000000006;0.16;1.2742647259370212e-05
-0.374;0.16;1.2868054165667143e-05
-0.37350000000000005;0.16;1.2994703170019292e-05
-0.37300000000000005;0.16;1.312260603889968e-05
