Potential (V);ic (A);if (A) 
-0.55;0.0;3.362985063806956e-10
-0.548;0.07520198234585891;1.6789500441759116e-06
-0.546;0.1415674988343009;1.7456121325228093e-06
-0.544;0.20013486157377786;1.8149080941667136e-06
-0.542;0.25182037778391464;1.8869848220986176e-06
-0.54;0.2974326857478462;1.961924987587116e-06
-0.538;0.33768540624575066;2.039831714636806e-06
-0.536;0.3732083074057546;2.1208379116573565e-06
-0.534;0.4045571576502769;2.205066139606375e-06
-0.532;0.43222242089065616;2.292632123058837e-06
-0.53;0.4566369300094783;2.3836875818184506e-06
-0.528;0.4781826586849623;2.478359491927333e-06
-0.526;0.49719669750500495;2.5767875666192315e-06
-0.524;0.5139765278693158;2.6791283468919236e-06
-0.522;0.5287846761917151;2.785532672215753e-06
-0.52;0.5418528212192458;2.8961712962087584e-06
-0.518;0.5533854187285678;3.011199149918575e-06
-0.516;0.5635629003092995;3.1307839965577336e-06
-0.514;0.5725444962804068;3.2551370331354435e-06
-0.512;0.5804707269051754;3.384419027115149e-06
-0.51;0.5874656008807048;3.518850608098312e-06
-0.508;0.5936385554980791;3.6586133283070415e-06
-0.506;0.5990861688277072;3.8039275288972514e-06
-0.504;0.6038936707175825;3.955018337586875e-06
-0.502;0.6081362762445671;4.112111099975693e-06
-0.5;0.6118803624810193;4.275444259721483e-06
-0.49800000000000005;0.6151845069876979;4.445261190470905e-06
-0.49600000000000005;0.6181004042805338;4.621832248530207e-06
-0.49400000000000005;0.6206736746097162;4.805416616031047e-06
-0.49200000000000005;0.6229445777047325;4.9962933151775046e-06
-0.49000000000000005;0.6249486426521542;5.194757148435234e-06
-0.48800000000000004;0.6267172237608322;5.401106741167514e-06
-0.48600000000000004;0.6282779911112101;5.615653816198986e-06
-0.48400000000000004;0.6296553634635739;5.838726304169335e-06
-0.48200000000000004;0.6308708902982405;6.070661850639835e-06
-0.48000000000000004;0.6319435889648423;6.311814005401896e-06
-0.47800000000000004;0.6328902422155249;6.562549075910413e-06
-0.47600000000000003;0.633725660777074;6.82324676122228e-06
-0.47400000000000003;0.6344629150700029;7.094305555291981e-06
-0.47200000000000003;0.6351135396999296;7.376134706228776e-06
-0.47000000000000003;0.6356877139205853;7.669168588940999e-06
-0.468;0.6361944208918578;7.973845795109028e-06
-0.466;0.636641588224524;8.290629241966973e-06
-0.4640000000000001;0.6370362120105387;8.620006495390843e-06
-0.462;0.637384466279383;8.962476949320182e-06
-0.4600000000000001;0.63769179959295;9.318556887057623e-06
-0.458;0.6379630202902338;9.688791657006592e-06
-0.45600000000000007;0.6382023717155036;1.007374437424642e-05
-0.454;0.6384135986069336;1.0473997512992006e-05
-0.45200000000000007;0.638600005684363;1.0890164080109236e-05
-0.45000000000000007;0.6387645093528143;1.1322876294401604e-05
-0.44800000000000006;0.6389096833306863;1.1772793183155031e-05
-0.44600000000000006;0.6390377989164944;1.2240595844627493e-05
-0.44400000000000006;0.6391508605241427;1.2727000102773223e-05
-0.44200000000000006;0.6392506370426937;1.3232745558897027e-05
-0.44000000000000006;0.6393386895112655;1.3758601863863057e-05
-0.43800000000000006;0.6394163955420451;1.4305370205739568e-05
-0.43600000000000005;0.6394849708735203;1.4873882187350046e-05
-0.43400000000000005;0.6395454883911408;1.5465007155196725e-05
-0.43200000000000005;0.639598894912993;1.6079641886680713e-05
-0.43000000000000005;0.6396460260031054;1.671872515744576e-05
-0.42800000000000005;0.6396876190441451;1.738323136262273e-05
-0.42600000000000005;0.6397243247740315;1.8074172423831282e-05
-0.42400000000000004;0.6397567174669636;1.8792602382859616e-05
-0.42200000000000004;0.6397853039181424;1.953961713410464e-05
-0.42000000000000004;0.6398105313727637;2.031635571327248e-05
-0.41800000000000004;0.639832794523327;2.112400491482772e-05
-0.41600000000000004;0.6398524416847409;2.1963795571208904e-05
-0.41400000000000003;0.6398697802438332;2.2837009207473385e-05
-0.41200000000000003;0.6398850814685274;2.374498186763333e-05
-0.41000000000000003;0.639898584751926;2.468909759516754e-05
-0.40800000000000003;0.6399105013576998;2.5670801338894055e-05
-0.406;0.6399210177253846;2.6691589983970362e-05
-0.404;0.6399302983872928;2.775302723395083e-05
-0.402;0.6399384885426808;2.8856733936509396e-05
-0.4;0.6399457163294423;3.000440023900275e-05
-0.398;0.6399520948288719;3.119778073990218e-05
-0.396;0.6399577238348616;3.243870232515845e-05
-0.394;0.6399626914152122;3.372906541749179e-05
-0.392;0.639967075289485;3.5070846912436477e-05
-0.39;0.639970944044952;3.646610184906086e-05
-0.388;0.6399743582096685;3.791697044675618e-05
-0.386;0.6399773711994557;3.942567673664107e-05
-0.384;0.6399800301536105;4.099453581020675e-05
-0.382;0.6399823766724162;4.262595603420181e-05
-0.38;0.639984447467994;4.432244296902499e-05
-0.37800000000000006;0.6399862749386774;4.608660286428734e-05
-0.376;0.639987887675895;4.792114681105475e-05
-0.374;0.6399893109114942;4.982889813780221e-05
-0.372;0.6399905669125022;5.181279133994633e-05
-0.37000000000000005;0.6399916753295014;5.387588138478925e-05
-0.36800000000000005;0.63999265350407;5.602134690876612e-05
-0.366;0.6399935167400969;5.8252494963322245e-05
-0.364;0.6399942785432168;6.057276758314859e-05
-0.36200000000000004;0.6399949508321106;6.29857463111505e-05
-0.36000000000000004;0.639995544124977;6.549515797507772e-05
-0.358;0.6399960677040939;6.810488167846962e-05
-0.356;0.6399965297610428;7.081895414531165e-05
-0.35400000000000004;0.6399969375248691;7.364157702903749e-05
-0.35200000000000004;0.6399972973751826;7.657712327390636e-05
-0.35000000000000003;0.6399976149419699;7.963014472749082e-05
-0.348;0.639997895193676;8.280537909991435e-05
-0.34600000000000003;0.6399981425149385;8.61077586683275e-05
-0.34400000000000003;0.6399983607751866;8.954241712749012e-05
-0.342;0.6399985533891795;9.311469999604774e-05
-0.3400000000000001;0.6399987233704317;9.68301714087794e-05
-0.338;0.6399988733783603;0.00010069462546960937
-0.336;0.6399990057598925;0.00010471409406792005
-0.334;0.6399991225861847;0.00010889485904346132
-0.3320000000000001;0.6399992256850257;0.00011324346099333027
-0.33000000000000007;0.6399993166694337;0.00011776671176086085
-0.328;0.6399993969628917;0.00012247170508608435
-0.326;0.6399994678216198;0.00012736582974440385
-0.32400000000000007;0.6399995303542279;0.00013245678130756032
-0.32200000000000006;0.6399995855390608;0.00013775257606806813
-0.32000000000000006;0.6399996342395049;0.0001432615649700344
-0.318;0.639999677217496;0.00014899244758701552
-0.31600000000000006;0.6399997151454401;0.00015495428847798
-0.31400000000000006;0.6399997486167331;0.00016115653207198798
-0.31200000000000006;0.6399997781550456;0.0001676090201330689
-0.31000000000000005;0.6399998042225149;0.00017432200882810413
-0.30800000000000005;0.6399998272269758;0.00018130618746742621
-0.30600000000000005;0.6399998475283413;0.00018857269788306812
-0.30400000000000005;0.6399998654442335;0.00019613315395809744
-0.30200000000000005;0.6399998812549528;0.00020399966359290646
-0.30000000000000004;0.6399998952078637;0.00021218485049867678
-0.298;0.6399999075212642;0.00022070187749429444
-0.29600000000000004;0.6399999183878021;0.00022956447129475658
-0.29400000000000004;0.6399999279774882;0.00023878694753239602
-0.29200000000000004;0.6399999364403565;0.0002483842387133961
-0.29000000000000004;0.6399999439088114;0.0002583719215387736
-0.28800000000000003;0.6399999504996998;0.00026876624743029124
-0.28600000000000003;0.6399999563161385;0.0002795841731511645
-0.28400000000000003;0.6399999614491274;0.00029084339407927273
-0.28200000000000003;0.6399999659789744;0.000302562378781996
-0.28;0.6399999699765503;0.00031476040528606553
-0.278;0.6399999735043986;0.0003274575991558023
-0.276;0.6399999766177138;0.000340674973828966
-0.274;0.6399999793652049;0.0003544344731829922
-0.272;0.6399999817898572;0.0003687590161021087
-0.27;0.6399999839296054;0.0003836725432442059
-0.268;0.6399999858179265;0.00039920006673021136
-0.266;0.6399999874843642;0.00041536772259011896
-0.264;0.6399999889549901;0.00043220282534618356
-0.262;0.639999990252813;0.0004497339266043472
-0.26000000000000006;0.6399999913981377;0.00046799087585487875
-0.258;0.6399999924088831;0.000487004885559589
-0.256;0.6399999933008629;0.0005068085991403279
-0.254;0.6399999940880322;0.0005274361632557273
-0.25200000000000006;0.6399999947827067;0.0005489233039738801
-0.25000000000000006;0.6399999953957548;0.0005713074072098572
-0.248;0.6399999959367679;0.0005946276038216333
-0.246;0.6399999964142102;0.0006189248598596226
-0.24400000000000005;0.6399999968355516;0.000644242071504506
-0.24200000000000005;0.6399999972073842;0.0006706241659717612
-0.24000000000000005;0.6399999975355252;0.0006981182081714037
-0.238;0.6399999978251086;0.000726773513534372
-0.23600000000000004;0.6399999980806651;0.0007566417676969256
-0.23400000000000004;0.6399999983061929;0.0007877771531658225
-0.23200000000000004;0.6399999985052205;0.0008202364836486497
-0.23000000000000004;0.6399999986808618;0.0008540793463226823
-0.22800000000000004;0.6399999988358646;0.0008893682528975788
-0.22600000000000003;0.639999998972654;0.0009261687996359185
-0.22400000000000003;0.6399999990933704;0.0009645498371927896
-0.22199999999999998;0.6399999991999021;0.0010045836509692747
-0.22000000000000003;0.6399999992939162;0.0010463461524152402
-0.21800000000000003;0.6399999993768831;0.0010899170821877804
-0.21600000000000003;0.6399999994501013;0.0011353802259782705
-0.21400000000000002;0.6399999995147162;0.0011828236436991016
-0.21200000000000002;0.6399999995717385;0.0012323399128981157
-0.21000000000000002;0.6399999996220606;0.0012840263878122567
-0.20800000000000002;0.6399999996664696;0.0013379854741966694
-0.20600000000000007;0.6399999997056605;0.0013943249219241938
-0.20400000000000001;0.6399999997402462;0.0014531581358998998
-0.202;0.6399999997707682;0.0015146045066437028
-0.2;0.6399999997977036;0.0015787897621932013
-0.198;0.639999999821474;0.0016458463420272183
-0.19600000000000006;0.6399999998424515;0.0017159137951388897
-0.194;0.6399999998609639;0.0017891392034669947
-0.192;0.639999999877301;0.0018656776323933972
-0.19000000000000006;0.6399999998917185;0.0019456926101539332
-0.188;0.639999999904442;0.0020293566378729888
-0.18600000000000005;0.6399999999156704;0.00211685173241679
-0.184;0.6399999999255793;0.0022083700038051674
-0.182;0.639999999934324;0.00230411426976403
-0.18000000000000005;0.6399999999420412;0.002404298709509566
-0.178;0.6399999999488515;0.002509149559153379
-0.17600000000000005;0.6399999999548616;0.0026189058515139175
-0.17400000000000004;0.6399999999601655;0.002733820202833876
-0.172;0.6399999999648462;0.002854159649223089
-0.17000000000000004;0.6399999999689768;0.0029802065359605247
-0.16799999999999998;0.6399999999726221;0.0031122594624883346
-0.16599999999999998;0.6399999999758391;0.0032506342863401114
-0.16400000000000003;0.6399999999786781;0.0033956651893920034
-0.16199999999999998;0.6399999999811835;0.0035477058097277913
-0.16000000000000003;0.6399999999833945;0.003707130442653069
-0.15800000000000003;0.6399999999853457;0.0038743353143087687
-0.15599999999999997;0.6399999999870677;0.0040497399316754895
-0.15400000000000003;0.6399999999885873;0.004233788512395357
-0.15199999999999997;0.6399999999899283;0.0044269514982242485
-0.15000000000000002;0.6399999999911118;0.004629727155553805
-0.14800000000000002;0.6399999999921561;0.004842643266595181
-0.14599999999999996;0.6399999999930779;0.0050662589145562004
-0.14400000000000002;0.6399999999938912;0.005301166365916712
-0.14200000000000002;0.639999999994609;0.005547993052799061
-0.14;0.6399999999952425;0.005807403657743679
-0.138;0.6399999999958015;0.006080102303070154
-0.13599999999999995;0.6399999999962949;0.006366834846184714
-0.134;0.6399999999967302;0.006668391281451817
-0.132;0.6399999999971144;0.006985608248537483
-0.13000000000000006;0.6399999999974535;0.0073193716458118865
-0.128;0.6399999999977527;0.007670619346223176
-0.126;0.6399999999980167;0.008040344011551164
-0.124;0.6399999999982499;0.00842959599900709
-0.122;0.6399999999984555;0.008839486352114697
-0.12000000000000005;0.639999999998637;0.009271189865301583
-0.118;0.6399999999987971;0.009725948208792835
-0.11599999999999999;0.6399999999989384;0.010205073097022324
-0.11400000000000005;0.6399999999990632;0.01070994948010077
-0.11199999999999999;0.6399999999991733;0.011242038733479323
-0.11000000000000004;0.6399999999992704;0.01180288181606463
-0.10799999999999998;0.6399999999993561;0.012394102361602554
-0.10599999999999998;0.6399999999994318;0.013017409661725227
-0.10400000000000004;0.6399999999994986;0.013674601492380322
-0.10199999999999998;0.6399999999995575;0.01436756672733585
-0.10000000000000003;0.6399999999996095;0.015098287674175813
-0.09800000000000003;0.6399999999996554;0.015868842058587313
-0.09599999999999997;0.6399999999996959;0.016681404572637698
-0.09400000000000003;0.6399999999997317;0.017538247891571844
-0.09199999999999997;0.6399999999997631;0.018441743051742735
-0.09000000000000002;0.639999999999791;0.01939435906957637
-0.08800000000000002;0.6399999999998156;0.020398661668175694
-0.08599999999999997;0.6399999999998373;0.021457310964232867
-0.08400000000000002;0.6399999999998564;0.02257305795374951
-0.08200000000000002;0.6399999999998732;0.023748739620853828
-0.08000000000000002;0.6399999999998881;0.024987272480011258
-0.07800000000000001;0.6399999999999012;0.026291644348780577
-0.07599999999999996;0.6399999999999129;0.02766490413627801
-0.07400000000000001;0.6399999999999232;0.029110149422564225
-0.07200000000000001;0.6399999999999322;0.030630511596800362
-0.07000000000000006;0.6399999999999401;0.032229138318290246
-0.068;0.6399999999999472;0.03390917306543456
-0.066;0.6399999999999534;0.0356737315442054
-0.064;0.6399999999999588;0.03752587474147636
-0.062;0.6399999999999637;0.03946857843055666
-0.06000000000000005;0.6399999999999679;0.041504698968209915
-0.057999999999999996;0.6399999999999717;0.04363693526561313
-0.055999999999999994;0.639999999999975;0.0458677868715913
-0.05399999999999999;0.639999999999978;0.048199508176394366
-0.05199999999999999;0.6399999999999806;0.05063405882921347
-0.050000000000000044;0.6399999999999829;0.05317305056353839
-0.04800000000000004;0.6399999999999849;0.055817690741422885
-0.04599999999999993;0.6399999999999867;0.05856872306057453
-0.04400000000000004;0.6399999999999882;0.06142636601578665
-0.04200000000000004;0.6399999999999897;0.06439024986665919
-0.040000000000000036;0.6399999999999908;0.06745935303350777
-0.038000000000000034;0.6399999999999919;0.07063193901908342
-0.03600000000000003;0.6399999999999928;0.07390549512894487
-0.03400000000000003;0.6399999999999937;0.0772766744319607
-0.03200000000000003;0.6399999999999945;0.08074124255582427
-0.030000000000000027;0.6399999999999951;0.0842940310417815
-0.028000000000000025;0.6399999999999957;0.08792889907789837
-0.026000000000000023;0.6399999999999961;0.09163870548073115
-0.02400000000000002;0.6399999999999966;0.09541529279091787
-0.02200000000000002;0.639999999999997;0.0992494852793696
-0.020000000000000018;0.6399999999999973;0.10313110251934368
-0.018000000000000016;0.6399999999999977;0.10704898995987382
-0.016000000000000014;0.6399999999999979;0.11099106763506016
-0.014000000000000012;0.6399999999999982;0.11494439776265951
-0.01200000000000001;0.6399999999999985;0.11889527152976527
-0.010000000000000009;0.6399999999999986;0.12282931484339413
-0.008000000000000007;0.6399999999999988;0.12673161225478602
-0.006000000000000005;0.6399999999999989;0.13058684766799114
-0.0040000000000000036;0.639999999999999;0.13437945983986274
-0.0020000000000000018;0.6399999999999991;0.13809381009668253
0.0;0.6399999999999992;0.14171435916091618
0.0020000000000000018;0.6399999999999993;0.1452258495282677
0.0040000000000000036;0.6399999999999995;0.14861348948678701
0.006000000000000005;0.6399999999999996;0.15186313464874693
0.008000000000000007;0.6399999999999996;0.15496146278929768
0.010000000000000009;0.6399999999999996;0.15789613786337006
0.01200000000000001;0.6399999999999997;0.16065595930570617
0.014000000000000012;0.6399999999999997;0.16323099310150385
0.016000000000000014;0.6399999999999997;0.16561268163190515
0.018000000000000016;0.6399999999999998;0.16779392992685335
0.020000000000000018;0.6399999999999998;0.16976916666904274
0.02200000000000002;0.6399999999999998;0.17153437905381028
0.02400000000000002;0.6399999999999999;0.17308712138592489
0.026000000000000023;0.6399999999999999;0.17442649805038002
0.028000000000000025;0.6399999999999999;0.1755531221980701
0.029999999999999916;0.6399999999999999;0.17646905211032574
0.03200000000000003;0.6399999999999999;0.17717770772629057
0.03400000000000003;0.6399999999999999;0.17768377021822346
0.03600000000000003;0.6399999999999999;0.17799306777380827
0.038000000000000034;0.6399999999999999;0.17811245088953567
0.039999999999999925;0.6399999999999999;0.17804966050109242
0.04200000000000004;0.6399999999999999;0.17781319218554215
0.04400000000000004;0.6399999999999999;0.1774121594813585
0.04599999999999993;0.6399999999999999;0.17685615910427743
0.04800000000000004;0.6399999999999999;0.17615514050860442
0.04999999999999993;0.64;0.17531928187574397
0.052000000000000046;0.64;0.1743588742229172
0.05400000000000005;0.64;0.17328421493263746
0.05599999999999994;0.64;0.17210551162321822
0.05800000000000005;0.64;0.17083279692348216
0.05999999999999994;0.64;0.16947585439128024
0.061999999999999944;0.64;0.16804415553106847
0.06400000000000006;0.64;0.16654680762429158
0.06599999999999995;0.64;0.16499251188948807
0.06800000000000006;0.64;0.1633895313353039
0.06999999999999995;0.64;0.16174566755719602
0.07199999999999995;0.64;0.1600682456540097
0.07400000000000007;0.64;0.15836410639897106
0.07599999999999996;0.64;0.1566396047871396
0.07799999999999996;0.64;0.15490061409230782
0.07999999999999996;0.64;0.15315253459650036
0.08199999999999996;0.64;0.15140030620012332
0.08400000000000007;0.64;0.14964842417602506
0.08599999999999997;0.64;0.14790095739316222
0.08799999999999997;0.64;0.1461615684018112
0.08999999999999997;0.64;0.144433534839808
0.09199999999999997;0.64;0.14271977168637273
0.09399999999999997;0.64;0.14102285395457956
0.09600000000000009;0.64;0.13934503947481916
0.09799999999999998;0.64;0.13768829147843198
0.09999999999999998;0.64;0.1360543007428297
0.10199999999999998;0.64;0.1344445071063459
0.10399999999999998;0.64;0.132860120203032
0.1060000000000001;0.64;0.13130213930432846
0.10799999999999998;0.64;0.1297713721865648
0.10999999999999999;0.64;0.12826845297066405
0.11199999999999999;0.64;0.12679385890356995
0.11399999999999999;0.64;0.12534792607038112
0.1160000000000001;0.64;0.12393086404200376
0.118;0.64;0.12254276947604328
0.12;0.64;0.12118363869882687
0.122;0.64;0.11985337930422234
0.124;0.64;0.1185518208108283
0.126;0.64;0.11727872442314523
0.1279999999999999;0.64;0.11603379194506482
0.13;0.64;0.11481667389549981
0.132;0.64;0.11362697687646506
0.134;0.64;0.11246427024370667
0.136;0.64;0.11132809212899485
0.1379999999999999;0.64;0.11021795486189744
0.14;0.64;0.10913334983705111
0.14200000000000002;0.64;0.1080737518709408
0.14400000000000002;0.64;0.10703862309003695
0.14600000000000002;0.64;0.10602741638977062
0.1479999999999999;0.64;0.10503957850152332
0.15000000000000002;0.64;0.10407455270239155
0.15200000000000002;0.64;0.10313178120013963
0.15400000000000003;0.64;0.10221070722348234
0.15600000000000003;0.64;0.10131077684555954
0.15799999999999992;0.64;0.1004314405663829
0.15999999999999992;0.64;0.09957215467796138
0.16200000000000003;0.64;0.09873238243388957
0.16400000000000003;0.64;0.09791159504337532
0.16600000000000004;0.64;0.0971092725079644
0.16799999999999993;0.64;0.09632490431762229
0.16999999999999993;0.64;0.09555799002136951
