Potential (V);Current (A)
-0.55;3.362985063806956e-10
-0.5477982982982984;0.06755556841575351
-0.5455965965965967;0.10671987295246194
-0.543394894894895;0.12927281065562019
-0.5411931931931933;0.1422690258629866
-0.5389914914914915;0.14979250954682485
-0.5367897897897899;0.15410314000069875
-0.5345880880880882;0.15660197158178427
-0.5323863863863865;0.1580402592879777
-0.5301846846846847;0.15886951924651943
-0.527982982982983;0.1593493696481091
-0.5257812812812813;0.1596244511132387
-0.5235795795795797;0.1597839117155757
-0.5213778778778779;0.15987566372828088
-0.5191761761761762;0.15992860540216858
-0.5169744744744745;0.1599592401160016
-0.5147727727727728;0.15997682547240868
-0.5125710710710711;0.15998703379438506
-0.5103693693693694;0.15999292082440264
-0.5081676676676677;0.15999633617466952
-0.505965965965966;0.15999832895552557
-0.5037642642642643;0.15999949178063747
-0.5015625625625626;0.16000018560634896
-0.4993608608608609;0.16000060541939784
-0.4971591591591592;0.16000086966236152
-0.4949574574574575;0.16000104510733618
-0.4927557557557558;0.16000116978931922
-0.4905540540540541;0.1600012667396075
-0.4883523523523524;0.16000134852504752
-0.4861506506506507;0.160001422802087
-0.48394894894894896;0.16000149391662707
-0.48174724724724727;0.16000156444887895
-0.47954554554554557;0.16000163593161068
-0.4773438438438439;0.16000170933295746
-0.4751421421421422;0.16000178523781877
-0.4729404404404405;0.16000186405232739
-0.4707387387387388;0.16000194611231938
-0.4685370370370371;0.16000203160726095
-0.46633533533533533;0.16000212080671677
-0.4641336336336337;0.16000221386018942
-0.46193193193193194;0.1600023109662568
-0.4597302302302303;0.16000241234413023
-0.45752852852852854;0.16000251812487307
-0.45532682682682685;0.16000262858901287
-0.45312512512512515;0.16000274387614039
-0.4509234234234235;0.16000286422068802
-0.44872172172172176;0.16000298987526923
-0.44652002002002;0.16000312100053773
-0.44431831831831836;0.16000325794977083
-0.44211661661661666;0.16000340087598622
-0.43991491491491497;0.16000355008576664
-0.43771321321321327;0.16000370587718837
-0.4355115115115115;0.16000386845848982
-0.4333098098098099;0.1600040382684641
-0.4311081081081081;0.16000421549087537
-0.4289064064064064;0.16000440051816564
-0.4267047047047048;0.1600045937062862
-0.42450300300300303;0.16000479532069634
-0.42230130130130134;0.16000500591592987
-0.42009959959959964;0.1600052257034314
-0.41789789789789794;0.1600054551879442
-0.41569619619619624;0.1600056947949195
-0.41349449449449455;0.1600059448706762
-0.41129279279279285;0.16000620609435404
-0.40909109109109115;0.16000647873043075
-0.4068893893893894;0.16000676341822612
-0.4046876876876877;0.16000706067030537
-0.40248598598598606;0.1600073709348676
-0.4002842842842843;0.16000769503861653
-0.3980825825825826;0.16000803332082442
-0.3958808808808809;0.16000838659248787
-0.3936791791791793;0.1600087554636266
-0.3914774774774775;0.16000914052371515
-0.3892757757757758;0.1600095427709288
-0.3870740740740741;0.16000996264529918
-0.3848723723723724;0.16001040117427864
-0.3826706706706707;0.1600108590863276
-0.38046896896896903;0.1600113371520792
-0.37826726726726734;0.16001183658166707
-0.3760655655655656;0.1600123579418531
-0.3738638638638639;0.16001290253717787
-0.3716621621621622;0.16001347123729345
-0.36946046046046055;0.16001406505064075
-0.3672587587587588;0.16001468544114023
-0.3650570570570571;0.16001533314508803
-0.3628553553553554;0.16001600981872482
-0.3606536536536537;0.16001671650038377
-0.358451951951952;0.16001745450794816
-0.35625025025025026;0.16001822561867646
-0.3540485485485486;0.1600190307854145
-0.3518468468468469;0.16001987211709517
-0.34964514514514516;0.16002075085353787
-0.34744344344344347;0.16002166871865603
-0.34524174174174177;0.16002262787233695
-0.34304004004004;0.1600236295513699
-0.3408383383383384;0.1600246764449572
-0.3386366366366367;0.16002577003788518
-0.336434934934935;0.16002691258542354
-0.3342332332332333;0.16002810671836606
-0.3320315315315316;0.16002935404694185
-0.3298298298298299;0.16003065800861946
-0.32762812812812814;0.16003202038518027
-0.32542642642642644;0.16003344413182963
-0.32322472472472474;0.16003493246239509
-0.32102302302302305;0.16003648747914903
-0.31882132132132135;0.16003811358978992
-0.31661961961961965;0.16003981294034478
-0.31441791791791796;0.16004158941095756
-0.31221621621621626;0.16004344694190864
-0.31001451451451456;0.16004538828856377
-0.30781281281281286;0.1600474191240215
-0.3056111111111111;0.16004954204388216
-0.3034094094094094;0.16005176215793268
-0.3012077077077077;0.16005408431944876
-0.2990060060060061;0.16005651215624725
-0.2968043043043044;0.160059053001411
-0.2946026026026027;0.1600617100142038
-0.292400900900901;0.16006448994739317
-0.29019919919919923;0.16006739881308962
-0.28799749749749753;0.16007044144938531
-0.28579579579579584;0.16007362727473884
-0.28359409409409414;0.16007696027306398
-0.28139239239239244;0.16008044937222607
-0.27919069069069075;0.16008410207015986
-0.276988988988989;0.160087924965534
-0.2747872872872873;0.16009192989892793
-0.27258558558558565;0.1600961222800282
-0.27038388388388396;0.16010051386726645
-0.2681821821821822;0.16010511408727535
-0.2659804804804805;0.16010993197731382
-0.26377877877877876;0.160114982536352
-0.2615770770770771;0.16012027315943392
-0.2593753753753754;0.16012581944510076
-0.2571736736736737;0.16013163335547778
-0.254971971971972;0.16013772733048715
-0.25277027027027027;0.16014412053524413
-0.2505685685685686;0.16015082315275897
-0.24836686686686688;0.16015785604267718
-0.24616516516516518;0.16016523454322273
-0.24396346346346354;0.16017297588057558
-0.2417617617617618;0.16018110477981187
-0.23956006006006011;0.16018963537346878
-0.23735835835835845;0.16019859580076942
-0.23515665665665672;0.16020800595359141
-0.23295495495495497;0.16021788984533666
-0.23075325325325327;0.1602282797099781
-0.22855155155155157;0.1602391953207795
-0.22634984984984993;0.16025067499069542
-0.22414814814814818;0.16026274482919764
-0.22194644644644643;0.1602754385521428
-0.21974474474474473;0.16028879865091475
-0.21754304304304306;0.16030285301801767
-0.21534134134134134;0.16031765432256312
-0.2131396396396397;0.16033323725842882
-0.210937937937938;0.16034964951895544
-0.20873623623623627;0.1603669477568732
-0.20653453453453452;0.16038517163277838
-0.20433283283283285;0.16040439425706007
-0.20213113113113115;0.16042466228925845
-0.19992942942942948;0.16044604370217416
-0.19772772772772781;0.16046861488197534
-0.19552602602602606;0.1604924326470852
-0.19332432432432436;0.16051759944762087
-0.19112262262262272;0.16054417874732185
-0.18892092092092097;0.16057226812109826
-0.18671921921921925;0.1606019716625173
-0.18451751751751752;0.16063337131829453
-0.18231581581581585;0.16066661193151974
-0.18011411411411418;0.1607017806822525
-0.17791241241241243;0.16073901856019523
-0.17571071071071073;0.1607784687714593
-0.17350900900900904;0.16082025016356416
-0.17130730730730734;0.16086456913125588
-0.1691056056056056;0.16091154638777022
-0.16690390390390392;0.16096138677860877
-0.16470220220220222;0.16101428886370672
-0.16250050050050052;0.16107042569921057
-0.16029879879879882;0.16113009327515385
-0.15809709709709713;0.16119345961638487
-0.15589539539539543;0.16126082353033722
-0.15369369369369373;0.1613324618316398
-0.15149199199199204;0.16140863102894812
-0.14929029029029028;0.16148974535362395
-0.14708858858858861;0.16157605118857785
-0.1448868868868869;0.1616679811720411
-0.14268518518518525;0.16176592208795576
-0.14048348348348352;0.16187025368260585
-0.13828178178178177;0.1619815558274629
-0.13608008008008005;0.16210018938768225
-0.13387837837837835;0.16222678007615635
-0.1316766766766767;0.1623618672154225
-0.12947497497497498;0.16250600986549243
-0.12727327327327329;0.16266001800798005
-0.12507157157157162;0.16282441547129284
-0.12286986986986989;0.16300010280541893
-0.1206681681681682;0.16318782594962006
-0.11846646646646651;0.16338839937301244
-0.11626476476476483;0.16360294528128755
-0.11406306306306313;0.16383221221863836
-0.11186136136136138;0.16407748206848985
-0.10965965965965972;0.16433976922039692
-0.10745795795795804;0.16462023936742226
-0.1052562562562563;0.1649204213080377
-0.10305455455455455;0.16524135725134959
-0.10085285285285285;0.1655848356963748
-0.09865115115115113;0.1659521946064906
-0.09644944944944951;0.1663450548411101
-0.09424774774774776;0.16676543737784807
-0.09204604604604602;0.1672147327512344
-0.08984434434434434;0.1676953534346715
-0.08764264264264264;0.16820897271787683
-0.08544094094094098;0.16875774131080168
-0.08323923923923926;0.16934419642789048
-0.0810375375375375;0.16997006492219272
-0.07883583583583585;0.1706384236067709
-0.07663413413413417;0.17135117378177878
-0.07443243243243244;0.17211095539222745
-0.07223073073073079;0.17292067828976143
-0.07002902902902913;0.17378222400718685
-0.06782732732732738;0.17469915800964078
-0.06562562562562564;0.1756732547052452
-0.06342392392392392;0.1767073301568898
-0.06122222222222226;0.17780418426119252
-0.05902052052052054;0.17896534244004764
-0.056818818818818825;0.1801942487896779
-0.05461711711711712;0.18149178790514914
-0.05241541541541543;0.18286015307016318
-0.05021371371371376;0.18430102260338557
-0.04801201201201207;0.18581456909645927
-0.045810310310310264;0.18740285109189078
-0.0436086086086086;0.18906462302155935
-0.0414069069069069;0.19080003603845216
-0.039205205205205255;0.19260808770978635
-0.0370035035035036;0.19448616580587902
-0.034801801801801834;0.19643306854084192
-0.032600100100100206;0.19844400750165989
-0.0303983983983984;0.20051532304478298
-0.028196696696696704;0.20264173907269029
-0.02599499499499507;0.20481661204981397
-0.023793293293293327;0.20703365990505565
-0.02159159159159168;0.20928400657752685
-0.01938988988988987;0.2115590682718377
-0.017188188188188215;0.21384894061851797
-0.014986486486486537;0.21614304734094278
-0.012784784784784843;0.21843006059043857
-0.010583083083083054;0.22069841668324638
-0.00838138138138134;0.2229357349312469
-0.0061796796796796845;0.2251297368076529
-0.003977977977977944;0.2272684483905737
-0.0017762762762763475;0.22933858936861456
0.0004254254254254767;0.23132965184981938
0.0026271271271271065;0.2332292932415221
0.004828828828828725;0.2350274609404001
0.007030530530530581;0.2367151158749403
0.009232232232232155;0.23828203348953955
0.01143393393393407;0.23972308755320335
0.013635635635635577;0.24103051791943175
0.01583733733733728;0.24220069812264589
0.01803903903903905;0.24323089755016214
0.02024074074074068;0.24411760324835347
0.02244244244244244;0.24486291425878431
0.024644144144144082;0.24546579022429543
0.02684584584584582;0.24592984231760978
0.029047547547547528;0.24625870422332818
0.031249249249249215;0.24645550160288585
0.03345095095095091;0.2465277524341003
0.03565265265265264;0.24647977971118534
0.03785435435435426;0.24631973822571693
0.040056056056056014;0.24605485643195996
0.04225775775775768;0.24569193952870994
0.0444594594594595;0.24524028461730882
0.04666116116116111;0.24470646650885494
0.04886286286286285;0.24409945937583294
0.05106456456456448;0.2434268778934968
0.05326626626626627;0.24269593747986448
0.05546796796796796;0.2419147502729928
0.0576696696696697;0.24108953560326643
0.059871371371371364;0.24022756285513228
0.06207307307307297;0.23933489836654864
0.06427477477477474;0.2384172439153502
0.06647647647647643;0.23748026810498357
0.06867817817817817;0.23652862861821256
0.07087987987987983;0.235567069275703
0.07308158158158164;0.23459960947678138
0.07528328328328317;0.23362993973126536
0.07748498498498503;0.23266134605339914
0.0796866866866866;0.23169681249464855
0.08188838838838843;0.23073883447926286
0.08409009009009011;0.2297897023385339
0.08629179179179175;0.2288513935701276
0.0884934934934935;0.2279254317490405
0.09069519519519517;0.227013501415172
0.09289689689689687;0.22611650883550713
0.09509859859859858;0.22523556403820919
0.09730030030030015;0.22437145975269301
0.09950200200200209;0.22352462503526238
0.10170370370370366;0.22269588256285652
0.10390540540540545;0.22188518889690914
0.10610710710710716;0.2210929520279463
0.1083088088088087;0.22031925248638792
0.11051051051051045;0.2195639429589356
0.11271221221221206;0.21882730218814173
0.11491391391391395;0.2181088337688938
0.11711561561561552;0.21740856505149972
0.11931731731731741;0.2167261999192996
0.12151901901901903;0.2160613365564689
0.12372072072072073;0.21541395261243318
0.1259224224224224;0.21478338119818402
0.12812412412412405;0.21416947344333123
0.1303258258258258;0.21357176598194208
0.1325275275275275;0.2129897833050451
0.13472922922922914;0.21242335411587204
0.13693093093093098;0.2118717931929481
0.1391326326326326;0.21133488982808152
0.14133433433433443;0.2108121323361126
0.1435360360360361;0.21030306213210914
0.14573773773773765;0.20980744707276375
0.14793943943943935;0.2093246557872439
0.15014114114114105;0.20885447394912227
0.15234284284284286;0.20839640317327052
0.15454454454454444;0.20795004043759183
0.1567462462462462;0.20751514032776416
0.15894794794794795;0.2070911527249635
0.16114964964964965;0.2066778857716409
0.16335135135135137;0.2062748824727025
0.16555305305305304;0.20588180649074758
0.1677547547547546;0.20549842277597952
0.16995645645645643;0.20512426680573326
0.1721581581581581;0.20475917815960076
0.17435985985985994;0.20440275093422147
0.17656156156156153;0.20405471334711814
0.1787632632632633;0.2037148509292709
0.180964964964965;0.20338277843809519
0.1831666666666666;0.20305836742536607
0.18536836836836829;0.20274126337487222
0.18757007007006998;0.20243125144469604
0.18977177177177165;0.2021281408178671
0.19197347347347335;0.2018316151939276
0.19417517517517516;0.2015415749420789
0.19637687687687685;0.20125771288480965
0.19857857857857858;0.20097986198133747
0.20078028028028028;0.20070785457745147
0.20298198198198195;0.20044143227666059
0.20518368368368353;0.20018051987230162
0.20738538538538542;0.19992485185576706
0.20958708708708704;0.19967430017689788
0.21178878878878885;0.19942871826814837
0.21399049049049054;0.19918789540587833
0.21619219219219224;0.19895177635718822
0.21839389389389394;0.19872013137557354
0.22059559559559572;0.19849286366626726
0.22279729729729733;0.19826984512957008
0.224998998998999;0.198050903852156
0.2272007007007006;0.19783600057441475
0.22940240240240237;0.19762493581360147
0.2316041041041041;0.19741763756586983
0.2338058058058058;0.19721399356034613
0.2360075075075076;0.19701386596222448
0.23820920920920916;0.19681722010417912
0.24041091091091096;0.1966238899248882
0.2426126126126125;0.19643382029560838
0.24481431431431439;0.1962469123528961
0.24701601601601594;0.19606305590425796
0.2492177177177177;0.19588221928929112
0.2514194194194195;0.19570426456077666
0.2536211211211212;0.1955291496666277
0.25582282282282287;0.19535678703458376
0.2580245245245246;0.1951870886353872
0.26022622622622626;0.1950200254153497
0.2624279279279279;0.19485548227243368
0.26462962962962955;0.19469342752244298
0.2668313313313314;0.19453378308510386
0.269033033033033;0.19437647873520553
0.27123473473473475;0.1942214876385656
0.2734364364364365;0.19406871331363174
0.2756381381381381;0.1939181322940322
0.27783983983983995;0.19376967448625781
0.2800415415415415;0.19362328400892737
0.2822432432432433;0.19347893590054896
0.2844449449449449;0.1933365489171576
0.2866466466466466;0.19319610611044863
0.2888483483483484;0.1930575441258414
0.2910500500500501;0.19292081867917582
0.29325175175175183;0.19278590638389043
0.29545345345345353;0.19265273852271972
0.29765515515515506;0.19252130332373496
0.29985685685685687;0.19239154314160006
0.3020585585585585;0.1922634231057155
0.3042602602602603;0.192136921155147
0.3064619619619619;0.19201197892211047
0.30866366366366366;0.19188858875180206
0.3108653653653654;0.19176669785980616
0.31306706706706705;0.19164627904823375
0.3152687687687688;0.19152731137622445
0.3174704704704704;0.19140974507114228
0.3196721721721721;0.19129357575787279
0.3218738738738738;0.1911787548136475
0.3240755755755756;0.19106526132054594
0.3262772772772773;0.19095307528985828
0.328478978978979;0.19084215412485606
0.3306806806806807;0.19073249606656403
0.33288238238238244;0.19062405607628322
0.33508408408408397;0.19051681839727277
0.33728578578578583;0.19041076385650105
0.33948748748748747;0.19030585587983076
0.3416891891891893;0.19020209479717898
0.3438908908908909;0.19009943867538878
0.34609259259259256;0.18999787601618776
0.34829429429429437;0.18989738835157052
0.3504959959959959;0.18979794418825982
0.3526976976976977;0.18969954552479362
0.3548993993993993;0.18960215313557616
0.357101101101101;0.18950575904905279
0.3593028028028028;0.1894103454125538
0.3615045045045045;0.18931588547965555
0.3637062062062062;0.18922238126497015
0.365907907907908;0.18912979723444995
0.3681096096096096;0.18903812790846522
0.37031131131131134;0.18894735597689186
0.3725130130130129;0.18885745908806842
0.3747147147147148;0.18876843814692426
0.3769164164164164;0.1886802618879749
0.3791181181181181;0.1885929265504573
0.3813198198198198;0.18850641530757364
0.3835215215215216;0.18842070955703144
0.3857232232232233;0.18833580922769833
0.38792492492492503;0.18825168673651632
0.39012662662662656;0.1881683397575252
0.39232832832832826;0.18808575189890808
0.39453003003002995;0.18800390777015363
0.39673173173173176;0.18792280644038156
0.39893343343343346;0.18784242351769864
0.40113513513513516;0.18776275787697763
0.4033368368368369;0.18768379352174655
0.4055385385385385;0.18760551782326929
0.4077402402402403;0.1875279290925504
0.4099419419419418;0.18745100571506257
0.4121436436436437;0.18737474757295933
0.4143453453453453;0.18729913903245535
0.416547047047047;0.18722416984808646
0.4187487487487488;0.18714983766184787
0.4209504504504505;0.18707612328633266
0.42315215215215224;0.18700302745018024
0.4253538538538539;0.18693053485522898
0.42755555555555547;0.1868586373194414
0.4297572572572572;0.18678733189416805
0.43195895895895897;0.1867166015212699
0.4341606606606607;0.18664644764174415
0.43636236236236237;0.18657685527048307
0.43856406406406406;0.18650781801738617
0.44076576576576587;0.1864393324122693
0.4429674674674674;0.1863713832718089
0.4451691691691692;0.18630397263703719
0.4473708708708708;0.18623708581694468
0.4495725725725725;0.1861707179819272
0.4517742742742742;0.18610486520137282
0.4539759759759759;0.18603951394843987
0.4561776776776777;0.18597466676977925
0.4583793793793795;0.18591030925243737
0.4605810810810811;0.1858464379291921
0.46278278278278284;0.1857830484631591
0.4649844844844845;0.18572012879584365
0.46718618618618624;0.18565768189986812
0.4693878878878879;0.18559569362664502
0.47158958958958946;0.185534161701076
0.47379129129129127;0.1854730814281037
0.47599299299299286;0.18541244205480603
0.4781946946946948;0.1853522469123629
0.4803963963963964;0.1852924821047647
0.4825980980980981;0.1852331464021678
0.48479979979979965;0.18517423479414438
0.48700150150150157;0.18511573775591897
0.48920320320320326;0.18505765872812235
0.49140490490490496;0.18499998424894187
0.49360660660660666;0.18494271394268633
0.49580830830830835;0.18488584252171428
0.4980100100100099;0.18482936183987642
0.5002117117117119;0.18477327457728907
0.5024134134134133;0.18471756851856042
0.5046151151151151;0.18466224375796295
0.5068168168168167;0.1846072947647125
0.5090185185185186;0.18455271462515638
0.5112202202202203;0.1844985053321203
0.5134219219219219;0.1844446557938056
0.5156236236236237;0.1843911665164793
0.5178253253253253;0.1843380317566802
0.520027027027027;0.18428524570485508
0.5222287287287286;0.18423280973204587
0.5244304304304304;0.18418071376175618
